# Filter response for the standard L band filter of LBT's LMIRCam. File
# emailed to me by Jarron Leisenring on 2014 May 8 and subsequently massaged
# to: replace negative values with zeros; eliminate large stretches of
# multiple values for the same wavelength; put all wavelengths in order; and
# eliminate near-zero wings of the response. Wavelengths are in micron,
# repsponse goes up to 100 (i.e., percentage).

3.3029	0
3.3041	0
3.3053	0.1365
3.3066	0.1368
3.3078	0.1371
3.3090	0.1374
3.3102	0.1377
3.3115	0.138
3.3127	0.3586
3.3139	0.5792
3.3152	0.5795
3.3164	0.5798
3.3176	0.58
3.3189	0.5804
3.3201	0.5807
3.3213	0.8013
3.3226	0.8016
3.3237	0.8018
3.3250	1.0225
3.3263	1.0228
3.3275	1.0231
3.3287	1.0234
3.3300	1.0237
3.3312	1.024
3.3324	1.0243
3.3336	1.0246
3.3349	1.2452
3.3361	1.4658
3.3374	1.4661
3.3386	1.6867
3.3397	1.687
3.3410	1.9076
3.3423	2.128
3.3435	2.1284
3.3447	2.349
3.3460	2.3493
3.3472	2.5699
3.3484	2.7905
3.3497	2.7908
3.3509	3.0113
3.3521	3.0116
3.3534	3.2322
3.3546	3.6731
3.3558	4.1139
3.3571	4.3345
3.3583	4.555
3.3595	4.7755
3.3608	4.9962
3.3620	5.2168
3.3632	5.6576
3.3645	6.0984
3.3657	6.319
3.3669	6.7598
3.3682	7.2006
3.3694	7.4213
3.3706	7.862
3.3719	8.3029
3.3731	8.964
3.3743	9.6251
3.3756	10.2862
3.3768	10.9473
3.3780	11.6084
3.3793	12.2695
3.3805	12.7104
3.3817	12.9308
3.3830	14.0326
3.3841	14.9139
3.3854	15.575
3.3867	17.1172
3.3879	18.2187
3.3891	19.3205
3.3904	20.6423
3.3916	21.9643
3.3928	22.8456
3.3941	24.1675
3.3953	25.2692
3.3966	26.1505
3.3978	27.9129
3.3990	29.8956
3.4003	32.0986
3.4015	34.3014
3.4027	35.8437
3.4040	37.3859
3.4052	38.928
3.4064	40.6904
3.4077	43.3338
3.4089	45.9774
3.4102	48.4006
3.4114	49.7225
3.4126	51.4849
3.4139	54.1284
3.4151	56.5516
3.4163	58.3141
3.4176	61.1778
3.4188	63.8213
3.4201	65.5836
3.4213	67.3461
3.4226	69.5491
3.4238	71.9723
3.4250	73.955
3.4263	75.0566
3.4275	76.3785
3.4287	78.8016
3.4300	80.5642
3.4312	81.6658
3.4324	82.5472
3.4325	83.8688
3.4337	84.5299
3.4349	85.4112
3.4362	86.5129
3.4374	87.3942
3.4386	88.4959
3.4399	88.9367
3.4411	89.8181
3.4423	90.4792
3.4436	91.1403
3.4447	91.3608
3.4460	91.8016
3.4473	92.2425
3.4485	92.4631
3.4497	92.6837
3.4510	92.9042
3.4522	93.1248
3.4534	93.1251
3.4546	93.3457
3.4559	93.346
3.4571	93.5666
3.4584	93.7871
3.4596	93.7873
3.4607	94.008
3.4620	94.0083
3.4633	94.0086
3.4645	94.2292
3.4657	94.2295
3.4670	94.2298
3.4682	94.2301
3.4694	94.2304
3.4707	94.2307
3.4719	94.2311
3.4731	94.2314
3.4744	94.2317
3.4756	94.232
3.4768	94.2323
3.4781	94.2326
3.4793	94.2328
3.4805	94.2332
3.4818	94.2335
3.4830	94.2338
3.4842	94.2341
3.4855	94.2344
3.4867	94.2348
3.4879	94.2351
3.4891	94.2354
3.4904	94.4559
3.4916	94.4563
3.4928	94.4566
3.4941	94.4569
3.4953	94.4572
3.4965	94.4575
3.4978	94.4578
3.4990	94.4581
3.5002	94.4584
3.5015	94.4586
3.5027	94.459
3.5039	94.4593
3.5051	94.4596
3.5064	94.46
3.5076	94.4603
3.5089	94.4606
3.5101	94.4609
3.5112	94.4612
3.5126	94.4615
3.5138	94.4618
3.5150	94.4621
3.5162	94.4624
3.5175	94.4627
3.5187	94.463
3.5199	94.4633
3.5211	94.4637
3.5224	94.464
3.5236	94.4643
3.5249	94.4646
3.5261	94.4649
3.5272	94.4652
3.5286	94.4655
3.5298	94.4658
3.5310	94.4661
3.5323	94.4664
3.5335	94.4667
3.5347	94.467
3.5360	94.4674
3.5372	94.4677
3.5384	94.6882
3.5396	94.6885
3.5409	94.6888
3.5421	94.6892
3.5433	94.6895
3.5446	94.6898
3.5457	94.4698
3.5470	94.4701
3.5483	94.4704
3.5495	94.4707
3.5507	94.471
3.5520	94.4714
3.5532	94.4717
3.5544	94.472
3.5556	94.4723
3.5569	94.6928
3.5581	94.6932
3.5594	94.6935
3.5606	94.6938
3.5617	94.6941
3.5631	94.6944
3.5643	94.6947
3.5655	94.6949
3.5668	94.6953
3.5680	94.6956
3.5692	94.6959
3.5704	94.6962
3.5716	94.6966
3.5729	94.6968
3.5741	94.6972
3.5754	94.6975
3.5766	94.6978
3.5777	94.6981
3.5791	94.9186
3.5803	94.919
3.5815	94.9193
3.5828	94.9196
3.5840	94.9199
3.5852	94.9202
3.5865	94.9205
3.5877	94.9207
3.5889	94.9211
3.5901	94.9214
3.5914	94.9218
3.5926	94.9221
3.5939	94.9224
3.5951	94.9226
3.5963	94.923
3.5975	95.1436
3.5988	95.1439
3.6000	95.1442
3.6012	95.1445
3.6025	95.1448
3.6037	95.1451
3.6049	95.1454
3.6061	95.1457
3.6074	95.146
3.6086	95.1463
3.6099	95.1466
3.6111	95.147
3.6122	94.927
3.6136	94.9273
3.6148	94.9276
3.6160	94.9279
3.6173	94.9282
3.6185	94.9285
3.6197	94.9287
3.6210	94.9292
3.6221	94.9295
3.6234	94.7095
3.6246	94.7098
3.6259	94.7101
3.6271	94.4902
3.6282	94.4905
3.6296	94.4908
3.6308	94.491
3.6320	94.4914
3.6333	94.4917
3.6345	94.2718
3.6357	94.2721
3.6370	94.2724
3.6381	94.2727
3.6394	94.273
3.6407	94.2732
3.6419	94.2736
3.6431	94.2739
3.6444	94.2742
3.6456	94.0543
3.6468	94.0546
3.6481	94.0549
3.6493	94.0552
3.6505	94.0555
3.6517	94.0558
3.6530	93.8357
3.6542	93.8362
3.6554	93.8365
3.6566	93.8368
3.6579	93.8371
3.6591	93.8374
3.6604	93.8377
3.6616	93.838
3.6627	93.8383
3.6641	93.8386
3.6653	93.8389
3.6665	93.8392
3.6678	93.8395
3.6690	93.8399
3.6702	93.8401
3.6715	93.8405
3.6726	93.8408
3.6739	93.8411
3.6751	94.0617
3.6764	94.062
3.6776	94.0623
3.6787	94.2829
3.6801	94.2832
3.6813	94.2835
3.6825	94.2838
3.6838	94.2841
3.6850	94.2844
3.6862	94.2847
3.6875	94.285
3.6886	94.2852
3.6899	94.5059
3.6912	94.5062
3.6924	94.5065
3.6936	94.7271
3.6949	94.7274
3.6961	94.7277
3.6973	94.9483
3.6985	94.9485
3.6998	94.9489
3.7010	95.1695
3.7023	95.1698
3.7035	95.1701
3.7046	95.1703
3.7059	95.1707
3.7072	95.171
3.7084	95.1713
3.7096	95.1716
3.7109	95.1719
3.7121	95.3925
3.7133	95.3928
3.7146	95.3931
3.7158	95.3934
3.7170	95.3937
3.7183	95.394
3.7195	95.6146
3.7207	95.6149
3.7220	95.6152
3.7231	95.6155
3.7244	95.6158
3.7257	95.6162
3.7269	95.3961
3.7281	95.3965
3.7294	95.3968
3.7306	95.3971
3.7318	95.3974
3.7330	95.3977
3.7343	95.6183
3.7355	95.6186
3.7367	95.6189
3.7380	95.6192
3.7391	95.6195
3.7404	95.6199
3.7417	95.3999
3.7429	95.4002
3.7441	95.4005
3.7454	95.4008
3.7466	95.4011
3.7478	95.4014
3.7490	95.4017
3.7503	95.4021
3.7515	95.4024
3.7528	95.4027
3.7540	95.403
3.7551	95.4033
3.7565	95.4036
3.7577	95.4039
3.7589	95.4042
3.7601	95.4045
3.7614	95.4048
3.7626	95.4051
3.7638	95.4054
3.7651	95.4058
3.7663	95.4061
3.7675	95.4064
3.7688	95.4067
3.7700	95.407
3.7711	95.4073
3.7725	95.4076
3.7737	95.4079
3.7749	95.4082
3.7762	95.4085
3.7774	95.4088
3.7786	95.4091
3.7799	95.4095
3.7811	95.4098
3.7823	95.4101
3.7835	95.4104
3.7848	95.4107
3.7860	95.411
3.7872	95.4113
3.7885	95.4116
3.7896	95.4119
3.7909	95.4122
3.7922	95.4125
3.7934	95.4128
3.7946	95.4132
3.7959	95.4135
3.7971	95.4138
3.7983	95.4141
3.7995	95.4144
3.8008	95.4147
3.8020	95.415
3.8033	95.4153
3.8045	95.4156
3.8056	95.4159
3.8070	95.4162
3.8082	95.6368
3.8094	95.6371
3.8107	95.6374
3.8119	95.6377
3.8131	95.638
3.8143	95.6383
3.8155	95.6387
3.8168	95.639
3.8180	95.6393
3.8193	95.6396
3.8205	95.6399
3.8216	95.6402
3.8230	95.6404
3.8242	95.6408
3.8254	95.6411
3.8267	95.6414
3.8279	95.6417
3.8291	95.6421
3.8304	95.6423
3.8316	95.6427
3.8328	95.643
3.8340	95.6433
3.8353	95.6436
3.8365	95.6439
3.8378	95.6442
3.8390	95.6444
3.8401	95.6448
3.8414	95.6451
3.8427	95.6454
3.8439	95.6458
3.8451	95.4258
3.8464	95.4261
3.8476	95.4264
3.8488	95.4267
3.8500	95.427
3.8513	95.4273
3.8525	95.4276
3.8538	95.428
3.8550	95.4283
3.8561	95.4285
3.8575	95.4289
3.8587	95.4292
3.8599	95.2092
3.8612	95.2095
3.8624	95.2098
3.8636	95.2102
3.8649	95.2105
3.8660	95.2107
3.8673	95.2111
3.8685	95.2114
3.8698	95.2117
3.8710	94.9917
3.8721	94.9921
3.8735	94.9924
3.8747	94.7724
3.8759	94.7727
3.8772	94.773
3.8784	94.7732
3.8796	94.7736
3.8809	94.7739
3.8820	94.554
3.8833	94.5543
3.8846	94.5546
3.8858	94.3346
3.8870	94.335
3.8883	94.3353
3.8895	94.3356
3.8907	94.1156
3.8919	94.1159
3.8932	94.1162
3.8944	94.1165
3.8956	94.1169
3.8969	93.8969
3.8981	93.8972
3.8993	93.8975
3.9005	93.8978
3.9018	93.8981
3.9030	93.6782
3.9043	93.6785
3.9055	93.6787
3.9066	93.6791
3.9080	93.6794
3.9092	93.6797
3.9104	93.68
3.9117	93.6803
3.9129	93.6806
3.9141	93.9012
3.9154	93.9015
3.9165	93.9018
3.9178	94.1224
3.9190	94.1227
3.9203	94.123
3.9215	94.1233
3.9226	94.1236
3.9240	94.1239
3.9252	94.3445
3.9264	94.3448
3.9277	94.3451
3.9289	94.3454
3.9301	94.3457
3.9314	94.3461
3.9325	94.5666
3.9338	94.5669
3.9351	94.5672
3.9363	94.5676
3.9375	94.5678
3.9388	94.5682
3.9400	94.7887
3.9412	94.7891
3.9425	94.7894
3.9437	94.5694
3.9449	94.5697
3.9461	94.5699
3.9474	94.3501
3.9485	94.1301
3.9498	93.6899
3.9510	93.4699
3.9523	93.25
3.9535	93.03
3.9548	92.8101
3.9560	92.1496
3.9572	91.4891
3.9585	90.8286
3.9597	90.1681
3.9609	89.5076
3.9621	88.4066
3.9634	87.5259
3.9646	86.6451
3.9658	85.3237
3.9670	84.0026
3.9683	83.1218
3.9695	82.0208
3.9707	80.4793
3.9720	78.7175
3.9731	77.1759
3.9744	75.8546
3.9756	73.6522
3.9757	74.9739
3.9769	71.8904
3.9781	70.5692
3.9792	69.2479
3.9806	67.7064
3.9818	66.1648
3.9830	63.9625
3.9842	61.7602
3.9855	60.2186
3.9867	58.6771
3.9879	56.4747
3.9891	54.2724
3.9904	52.5106
3.9916	51.1893
3.9928	49.8679
3.9940	47.886
3.9952	45.9039
3.9965	44.5826
3.9977	42.16
3.9989	40.3982
4.0002	39.2972
4.0014	37.7557
4.0026	35.5533
4.0039	34.6726
4.0051	33.3513
4.0063	32.03
4.0075	30.929
4.0088	29.3875
4.0100	28.0662
4.0112	27.1854
4.0125	26.0844
4.0137	25.2037
4.0149	24.3229
4.0161	22.7814
4.0174	22.1209
4.0186	21.0199
4.0198	20.3594
4.0211	19.2584
4.0223	18.3776
4.0235	17.717
4.0247	17.0567
4.0260	16.1759
4.0272	15.0749
4.0284	14.4144
4.0297	13.7539
4.0309	13.0934
4.0321	12.8735
4.0334	12.4333
4.0346	11.7728
4.0358	11.1123
4.0370	10.8923
4.0383	10.4521
4.0395	9.7915
4.0407	9.1311
4.0420	8.9112
4.0432	8.6912
4.0444	8.0307
4.0457	7.3703
4.0469	7.1503
4.0481	6.9303
4.0493	6.7104
4.0506	6.2702
4.0518	5.8298
4.0530	5.6099
4.0543	5.39
4.0555	5.1701
4.0567	4.9501
4.0580	4.9504
4.0592	4.7305
4.0604	4.5105
4.0617	4.0703
4.0629	3.8502
4.0641	3.6303
4.0654	3.4104
4.0666	3.1905
4.0678	2.9705
4.0690	2.7506
4.0703	2.5306
4.0715	2.3106
4.0727	2.311
4.0740	2.3113
4.0752	2.3115
4.0764	2.3119
4.0777	2.0919
4.0789	2.0922
4.0801	2.0925
4.0814	1.8726
4.0826	1.8729
4.0838	1.8732
4.0851	1.6532
4.0863	1.6536
4.0875	1.4336
4.0887	1.2136
4.0900	1.214
4.0912	0.994
4.0924	0.9943
4.0937	0.9946
4.0949	0.9949
4.0961	0.9952
4.0974	0.9955
4.0986	0.9958
4.0998	0.9962
4.1011	0.9965
4.1023	0.9968
4.1035	0.9971
4.1048	0.9973
4.1060	0.7774
4.1072	0.7776
4.1085	0.778
4.1097	0.5581
4.1109	0.5584
4.1122	0.5587
4.1134	0.559
4.1146	0.5593
4.1158	0.5596
4.1171	0.3397
4.1183	0.34
4.1195	0.3403
4.1208	0.3406
4.1219	0.3409
4.1232	0.3412
4.1245	0.1213
4.1257	0.1216
4.1269	0.1219
4.1282	0.1222
4.1294	0.1225
4.1306	0.1228
4.1319	0.3434
4.1331	0.3437
4.1343	0.3439
4.1356	0.124
4.1368	0.1243
4.1380	0.1247
4.1393	0.125
4.1405	0.1253
4.1417	0.1256
4.1429	0.1259
4.1442	0.1262
4.1454	0.1265
4.1466	0.1268
4.1479	0.1271
4.1491	0.1274
4.1503	0.1277
4.1516	0.128
4.1528	0.1284
4.1540	0.1287
4.1553	0.129
4.1565	0.1293
4.1577	0.1296
4.1590	0.1299
4.1602	0.1302
4.1614	0.1305
4.1627	0.1308
4.1639	0.1311
4.1651	0.1314
4.1663	0.1317
4.1676	0.132
4.1688	0.1324
4.1700	0.1327
4.1713	0.133
4.1724	0.1333
4.1737	0.1336
4.1750	0.1339
4.1762	0.1342
4.1774	0.1345
4.1787	0.1348
4.1799	0.1351
4.1811	0.1354
4.1824	0.1358
4.1836	0.136
4.1848	0.1364
4.1861	0.1367
4.1873	0.137
4.1885	0.1373
4.1898	0.1376
4.1910	0.1379
4.1922	0.1381
4.1934	0.1385
4.1947	0.1388
4.1959	0.1391
4.1971	0.1395
4.1984	0.1398
4.1996	0.1401
4.2008	0.1404
4.2021	0.1407
4.2033	0.141
4.2045	0.1413
4.2058	0.1416
4.2070	0.1419
4.2082	0.1421
4.2095	0.1425
4.2107	0.1428
4.2119	0.1432
4.2132	0.1435
4.2144	0
4.2156	0
